##TITLE= IR Spectrum of compound 108-95-2
##JCAMP-DX= 4.24
##DATA TYPE= INFRARED SPECTRUM
##ORIGIN= FTIR Spectrometer
##OWNER= Test Lab
##XUNITS= 1/CM
##YUNITS= TRANSMITTANCE
##FIRSTX= 4000
##LASTX= 400
##NPOINTS= 100
##XYDATA= (X++(Y..Y))
4000 0.95
3900 0.94
3800 0.93
3700 0.92
3600 0.91
3500 0.90
3400 0.89
3300 0.88
3200 0.87
3100 0.86
3000 0.85
2900 0.84
2800 0.83
2700 0.82
2600 0.81
2500 0.80
2400 0.79
2300 0.78
2200 0.77
2100 0.76
2000 0.75
1900 0.74
1800 0.73
1700 0.72
1600 0.71
1500 0.70
1400 0.69
1300 0.68
1200 0.67
1100 0.66
1000 0.65
900 0.64
800 0.63
700 0.62
600 0.61
500 0.60
400 0.59
##END=